 # time (s), Total Kinetic Energy
   3.0000000000000001E-003   2.4990439873900717E-009
   6.0000000000000001E-003   2.4961774118964743E-009
   9.0000000000000011E-003   2.4914046582908128E-009
   1.2000000000000000E-002   2.4847330270733713E-009
   1.4999999999999999E-002   2.4761727233062292E-009
   1.7999999999999999E-002   2.4657368410031879E-009
   2.0999999999999998E-002   2.4534413431006596E-009
   2.3999999999999997E-002   2.4393050370405055E-009
   2.6999999999999996E-002   2.4233495460020609E-009
   2.9999999999999995E-002   2.4055992758268678E-009
   3.2999999999999995E-002   2.3860813776869247E-009
   3.5999999999999997E-002   2.3648257065535980E-009
   3.9000000000000000E-002   2.3418647755309080E-009
   4.2000000000000003E-002   2.3172337061228035E-009
   4.5000000000000005E-002   2.2909701745105651E-009
   4.8000000000000008E-002   2.2631143539227297E-009
   5.1000000000000011E-002   2.2337088531850331E-009
   5.4000000000000013E-002   2.2027986515453846E-009
   5.7000000000000016E-002   2.1704310298727318E-009
   6.0000000000000019E-002   2.1366554983347822E-009
   6.3000000000000014E-002   2.1015237206666249E-009
   6.6000000000000017E-002   2.0650894351449047E-009
   6.9000000000000020E-002   2.0274083723883956E-009
   7.2000000000000022E-002   1.9885381701113664E-009
   7.5000000000000025E-002   1.9485382849601143E-009
   7.8000000000000028E-002   1.9074699015666174E-009
   8.1000000000000030E-002   1.8653958389589529E-009
   8.4000000000000033E-002   1.8223804544724868E-009
   8.7000000000000036E-002   1.7784895453076043E-009
   9.0000000000000038E-002   1.7337902478847407E-009
   9.3000000000000041E-002   1.6883509351512324E-009
   9.6000000000000044E-002   1.6422411119967922E-009
   9.9000000000000046E-002   1.5955313089372855E-009
  0.10200000000000005        1.5482929742297029E-009
  0.10500000000000005        1.5005983645836821E-009
  0.10800000000000005        1.4525204346362716E-009
  0.11100000000000006        1.4041327253587754E-009
  0.11400000000000006        1.3555092515671187E-009
  0.11700000000000006        1.3067243887073094E-009
  0.12000000000000006        1.2578527590892945E-009
  0.12300000000000007        1.2089691177431237E-009
  0.12600000000000006        1.1601482380720045E-009
  0.12900000000000006        1.1114647974775583E-009
  0.13200000000000006        1.0629932631317382E-009
  0.13500000000000006        1.0148077780704109E-009
  0.13800000000000007        9.6698204778258452E-010
  0.14100000000000007        9.1958922746889785E-010
  0.14400000000000007        8.7270181014217528E-010
  0.14700000000000008        8.2639151574061834E-010
  0.15000000000000008        7.8072918142343485E-010
  0.15300000000000008        7.3578465321689542E-010
  0.15600000000000008        6.9162667917661740E-010
  0.15900000000000009        6.4832280422898730E-010
  0.16200000000000009        6.0593926685307628E-010
  0.16500000000000009        5.6454089776105811E-010
  0.16800000000000009        5.2419102073178675E-010
  0.17100000000000010        4.8495135574954878E-010
  0.17400000000000010        4.4688192459579463E-010
  0.17700000000000010        4.1004095903863699E-010
  0.18000000000000010        3.7448481176054175E-010
  0.18300000000000011        3.4026787015999020E-010
  0.18600000000000011        3.0744247315939822E-010
  0.18900000000000011        2.7605883114658248E-010
  0.19200000000000012        2.4616494917189406E-010
  0.19500000000000012        2.1780655351863117E-010
  0.19800000000000012        1.9102702175928735E-010
  0.20100000000000012        1.6586731640438701E-010
  0.20400000000000013        1.4236592224534594E-010
  0.20700000000000013        1.2055878748742098E-010
  0.21000000000000013        1.0047926876256883E-010
  0.21300000000000013        8.2158080106434629E-011
  0.21600000000000014        6.5623245977686313E-011
  0.21900000000000014        5.0900058391178043E-011
  0.22200000000000014        3.8011038230710468E-011
  0.22500000000000014        2.6975900800673444E-011
  0.22800000000000015        1.7811525669167889E-011
  0.23100000000000015        1.0531930848667958E-011
  0.23400000000000015        5.1482513537421489E-012
  0.23700000000000015        1.6687221687726802E-012
  0.24000000000000016        9.8665651527583261E-014
  0.24300000000000016        4.4048339197202389E-013
  0.24600000000000016        2.6936525387661912E-012
  0.24900000000000017        6.8547265990294319E-012
  0.25200000000000017        1.2917340710157040E-011
  0.25500000000000017        2.0872221375628808E-011
  0.25800000000000017        3.0707200649940211E-011
  0.26100000000000018        4.2407234750952240E-011
  0.26400000000000018        5.5954427071179616E-011
  0.26700000000000018        7.1328055552763725E-011
  0.27000000000000018        8.8504604384330860E-011
  0.27300000000000019        1.0745779997127743E-010
  0.27600000000000019        1.2815865112436733E-010
  0.27900000000000019        1.5057549340525281E-010
  0.28200000000000019        1.7467403756103884E-010
  0.28500000000000020        2.0041742197379312E-010
  0.28800000000000020        2.2776626904485233E-010
  0.29100000000000020        2.5667874542752502E-010
  0.29400000000000021        2.8711062601618244E-010
  0.29700000000000021        3.1901536159399535E-010
  0.30000000000000021        3.5234415003547568E-010
  0.30300000000000021        3.8704601095508722E-010
  0.30600000000000022        4.2306786368803620E-010
  0.30900000000000022        4.6035460848343841E-010
  0.31200000000000022        4.9884921078596436E-010
  0.31500000000000022        5.3849278847711478E-010
  0.31800000000000023        5.7922470194246341E-010
  0.32100000000000023        6.2098264682719984E-010
  0.32400000000000023        6.6370274933816611E-010
  0.32700000000000023        7.0731966394636851E-010
  0.33000000000000024        7.5176667334093972E-010
  0.33300000000000024        7.9697579048137149E-010
  0.33600000000000024        8.4287786259159477E-010
  0.33900000000000025        8.8940267693755579E-010
  0.34200000000000025        9.3647906822601135E-010
  0.34500000000000025        9.8403502746053591E-010
  0.34800000000000025        1.0319978120878220E-009
  0.35100000000000026        1.0802940572660602E-009
  0.35400000000000026        1.1288498880854985E-009
  0.35700000000000026        1.1775910325688014E-009
  0.36000000000000026        1.2264429352790034E-009
  0.36300000000000027        1.2753308713610313E-009
  0.36600000000000027        1.3241800608423655E-009
  0.36900000000000027        1.3729157830179042E-009
  0.37200000000000027        1.4214634907443738E-009
  0.37500000000000028        1.4697489244692982E-009
  0.37800000000000028        1.5176982258194433E-009
  0.38100000000000028        1.5652380505762470E-009
  0.38400000000000029        1.6122956808648954E-009
  0.38700000000000029        1.6587991363849784E-009
  0.39000000000000029        1.7046772845127271E-009
  0.39300000000000029        1.7498599491069369E-009
  0.39600000000000030        1.7942780178523411E-009
  0.39900000000000030        1.8378635479746340E-009
  0.40200000000000030        1.8805498701671088E-009
  0.40500000000000030        1.9222716905698568E-009
  0.40800000000000031        1.9629651906442754E-009
  0.41100000000000031        2.0025681247911037E-009
  0.41400000000000031        2.0410199155624900E-009
  0.41700000000000031        2.0782617463229580E-009
  0.42000000000000032        2.1142366512163336E-009
  0.42300000000000032        2.1488896023014302E-009
  0.42600000000000032        2.1821675937243211E-009
  0.42900000000000033        2.2140197227972458E-009
  0.43200000000000033        2.2443972678603289E-009
  0.43500000000000033        2.2732537628069460E-009
  0.43800000000000033        2.3005450681594074E-009
  0.44100000000000034        2.3262294385856516E-009
  0.44400000000000034        2.3502675867535823E-009
  0.44700000000000034        2.3726227434261592E-009
  0.45000000000000034        2.3932607137039677E-009
  0.45300000000000035        2.4121499293304702E-009
  0.45600000000000035        2.4292614969796505E-009
  0.45900000000000035        2.4445692424519080E-009
  0.46200000000000035        2.4580497507103138E-009
  0.46500000000000036        2.4696824016968246E-009
  0.46800000000000036        2.4794494018734511E-009
  0.47100000000000036        2.4873358114391946E-009
  0.47400000000000037        2.4933295671824388E-009
  0.47700000000000037        2.4974215009332598E-009
  0.48000000000000037        2.4996053535870203E-009
  0.48300000000000037        2.4998777846784284E-009
  0.48600000000000038        2.4982383774912643E-009
  0.48900000000000038        2.4946896396958464E-009
  0.49200000000000038        2.4892369995133616E-009
  0.49500000000000038        2.4818887974122887E-009
  0.49800000000000039        2.4726562733509043E-009
  0.50100000000000033        2.4615535495845687E-009
  0.50400000000000034        2.4485976090639234E-009
  0.50700000000000034        2.4338082694573487E-009
  0.51000000000000034        2.4172081528375273E-009
  0.51300000000000034        2.3988226510785027E-009
  0.51600000000000035        2.3786798870152255E-009
  0.51900000000000035        2.3568106714264309E-009
  0.52200000000000035        2.3332484559061782E-009
  0.52500000000000036        2.3080292816954912E-009
  0.52800000000000036        2.2811917245529062E-009
  0.53100000000000036        2.2527768357479295E-009
  0.53400000000000036        2.2228280792685932E-009
  0.53700000000000037        2.1913912653378966E-009
  0.54000000000000037        2.1585144803414076E-009
  0.54300000000000037        2.1242480132736024E-009
  0.54600000000000037        2.0886442788146737E-009
  0.54900000000000038        2.0517577371558865E-009
  0.55200000000000038        2.0136448106964114E-009
  0.55500000000000038        1.9743637977383006E-009
  0.55800000000000038        1.9339747833121423E-009
  0.56100000000000039        1.8925395472700058E-009
  0.56400000000000039        1.8501214697853689E-009
  0.56700000000000039        1.8067854344060373E-009
  0.57000000000000040        1.7625977288066184E-009
  0.57300000000000040        1.7176259433934763E-009
  0.57600000000000040        1.6719388679172072E-009
  0.57900000000000040        1.6256063862503551E-009
  0.58200000000000041        1.5786993694918715E-009
  0.58500000000000041        1.5312895675611743E-009
  0.58800000000000041        1.4834494994478788E-009
  0.59100000000000041        1.4352523422851823E-009
  0.59400000000000042        1.3867718194168743E-009
  0.59700000000000042        1.3380820876284887E-009
  0.60000000000000042        1.2892576237156398E-009
  0.60300000000000042        1.2403731105628866E-009
  0.60600000000000043        1.1915033229073150E-009
  0.60900000000000043        1.1427230129613843E-009
  0.61200000000000043        1.0941067960703032E-009
  0.61500000000000044        1.0457290365794164E-009
  0.61800000000000044        9.9766373408474765E-010
  0.62100000000000044        9.4998441024150475E-010
  0.62400000000000044        9.0276399630418062E-010
  0.62700000000000045        8.5607472156926653E-010
  0.63000000000000045        8.0998800289182952E-010
  0.63300000000000045        7.6457433544503832E-010
  0.63600000000000045        7.1990318488933501E-010
  0.63900000000000046        6.7604288111627122E-010
  0.64200000000000046        6.3306051372960413E-010
  0.64500000000000046        5.9102182942380323E-010
  0.64800000000000046        5.4999113141672118E-010
  0.65100000000000047        5.1003118109002773E-010
  0.65400000000000047        4.7120310198795504E-010
  0.65700000000000047        4.3356628632171972E-010
  0.66000000000000048        3.9717830412198409E-010
  0.66300000000000048        3.6209481517842744E-010
  0.66600000000000048        3.2836948390159163E-010
  0.66900000000000048        2.9605389723663098E-010
  0.67200000000000049        2.6519748575494390E-010
  0.67500000000000049        2.3584744804419754E-010
  0.67800000000000049        2.0804867851233786E-010
  0.68100000000000049        1.8184369871627037E-010
  0.68400000000000050        1.5727259231997860E-010
  0.68700000000000050        1.3437294378184338E-010
  0.69000000000000050        1.1317978086468584E-010
  0.69300000000000050        9.3725521056494499E-011
  0.69600000000000051        7.6039921984087472E-011
  0.69900000000000051        6.0150035895301800E-011
  0.70200000000000051        4.6080168279235583E-011
  0.70500000000000052        3.3851840688097095E-011
  0.70800000000000052        2.3483757817466788E-011
  0.71100000000000052        1.4991778895191784E-011
  0.71400000000000052        8.3888934227896908E-012
  0.71700000000000053        3.6852013064499695E-012
  0.72000000000000053        8.8789740803540645E-013
  0.72300000000000053        1.2605396705826213E-015
  0.72600000000000053        1.0266469187815172E-012
  0.72900000000000054        3.9624880935949767E-012
  0.73200000000000054        8.8042933422871949E-012
  0.73500000000000054        1.5544656542089242E-011
  0.73800000000000054        2.4173267497823844E-011
  0.74100000000000055        3.4676927712576083E-011
  0.74400000000000055        4.7039570576395656E-011
  0.74700000000000055        6.1242285942107453E-011
  0.75000000000000056        7.7263349050676174E-011
  0.75300000000000056        9.5078253761789997E-011
  0.75600000000000056        1.1465975003893589E-010
  0.75900000000000056        1.3597788563162847E-010
  0.76200000000000057        1.5900005189096961E-010
  0.76500000000000057        1.8369103364846199E-010
  0.76800000000000057        2.1001306308186257E-010
  0.77100000000000057        2.3792587748561751E-010
  0.77400000000000058        2.6738678085740576E-010
  0.77700000000000058        2.9835070920688513E-010
  0.78000000000000058        3.3077029948646971E-010
  0.78300000000000058        3.6459596203871313E-010
  0.78600000000000059        3.9977595644978732E-010
  0.78900000000000059        4.3625647069254171E-010
  0.79200000000000059        4.7398170343843727E-010
  0.79500000000000060        5.1289394941243995E-010
  0.79800000000000060        5.5293368766010506E-010
  0.80100000000000060        5.9403967259213126E-010
  0.80400000000000060        6.3614902766668122E-010
  0.80700000000000061        6.7919734156673543E-010
  0.81000000000000061        7.2311876672486468E-010
  0.81300000000000061        7.6784612004498175E-010
  0.81600000000000061        8.1331098566693825E-010
  0.81900000000000062        8.5944381961686404E-010
  0.82200000000000062        9.0617405618308102E-010
  0.82500000000000062        9.5343021585466546E-010
  0.82800000000000062        1.0011400146579423E-009
  0.83100000000000063        1.0492304747236345E-009
  0.83400000000000063        1.0976280359152719E-009
  0.83700000000000063        1.1462586683481017E-009
  0.84000000000000064        1.1950479856268738E-009
  0.84300000000000064        1.2439213586285960E-009
  0.84600000000000064        1.2928040296568630E-009
  0.84900000000000064        1.3416212267927803E-009
  0.85200000000000065        1.3902982782674568E-009
  0.85500000000000065        1.4387607266815043E-009
  0.85800000000000065        1.4869344428965986E-009
  0.86100000000000065        1.5347457394249355E-009
  0.86400000000000066        1.5821214831430021E-009
  0.86700000000000066        1.6289892071575344E-009
  0.87000000000000066        1.6752772216523388E-009
  0.87300000000000066        1.7209147235463253E-009
  0.87600000000000067        1.7658319047957038E-009
  0.87900000000000067        1.8099600591735339E-009
  0.88200000000000067        1.8532316873640578E-009
  0.88500000000000068        1.8955806002113210E-009
  0.88800000000000068        1.9369420199632248E-009
  0.89100000000000068        1.9772526793569261E-009
  0.89400000000000068        2.0164509183937852E-009
  0.89700000000000069        2.0544767786556146E-009
  0.90000000000000069        2.0912720950184038E-009
  0.90300000000000069        2.1267805846230141E-009
  0.90600000000000069        2.1609479329662487E-009
  0.90900000000000070        2.1937218769815450E-009
  0.91200000000000070        2.2250522849818368E-009
  0.91500000000000070        2.2548912333420315E-009
  0.91800000000000070        2.2831930798036334E-009
  0.92100000000000071        2.3099145332901056E-009
  0.92400000000000071        2.3350147201258598E-009
  0.92700000000000071        2.3584552465575926E-009
  0.93000000000000071        2.3802002574823377E-009
  0.93300000000000072        2.4002164912914929E-009
  0.93600000000000072        2.4184733307488962E-009
  0.93900000000000072        2.4349428498236455E-009
  0.94200000000000073        2.4495998564062312E-009
  0.94500000000000073        2.4624219308429041E-009
  0.94800000000000073        2.4733894602291579E-009
  0.95100000000000073        2.4824856684101664E-009
  0.95400000000000074        2.4896966416416124E-009
  0.95700000000000074        2.4950113498727656E-009
  0.96000000000000074        2.4984216636184380E-009
  0.96300000000000074        2.4999223663934601E-009
  0.96600000000000075        2.4995111626923897E-009
  0.96900000000000075        2.4971886815006864E-009
  0.97200000000000075        2.4929584753323041E-009
  0.97500000000000075        2.4868270147961478E-009
  0.97800000000000076        2.4788036786981352E-009
  0.98100000000000076        2.4689007396951947E-009
  0.98400000000000076        2.4571333455229966E-009
  0.98700000000000077        2.4435194958255980E-009
  0.99000000000000077        2.4280800146226323E-009
  0.99300000000000077        2.4108385184566861E-009
  0.99600000000000077        2.3918213802689322E-009
  0.99900000000000078        2.3710576890584188E-009
   1.0020000000000007        2.3485792053871055E-009
   1.0050000000000006        2.3244203127979815E-009
   1.0080000000000005        2.2986179652214755E-009
   1.0110000000000003        2.2712116304503776E-009
   1.0140000000000002        2.2422432297683299E-009
   1.0170000000000001        2.2117570738263917E-009
   1.0200000000000000        2.1797997948650420E-009
   1.0229999999999999        2.1464202753840705E-009
   1.0259999999999998        2.1116695733712771E-009
   1.0289999999999997        2.0756008442027523E-009
   1.0319999999999996        2.0382692593354359E-009
   1.0349999999999995        1.9997319219159488E-009
   1.0379999999999994        1.9600477794341846E-009
   1.0409999999999993        1.9192775335562479E-009
   1.0439999999999992        1.8774835472738918E-009
   1.0469999999999990        1.8347297495127113E-009
   1.0499999999999989        1.7910815373452532E-009
   1.0529999999999988        1.7466056759582853E-009
   1.0559999999999987        1.7013701965274939E-009
   1.0589999999999986        1.6554442921555453E-009
   1.0619999999999985        1.6088982120329179E-009
   1.0649999999999984        1.5618031539832770E-009
   1.0679999999999983        1.5142311555579022E-009
   1.0709999999999982        1.4662549838456942E-009
   1.0739999999999981        1.4179480241669038E-009
   1.0769999999999980        1.3693841678215829E-009
   1.0799999999999979        1.3206376990639949E-009
   1.0829999999999977        1.2717831814760081E-009
   1.0859999999999976        1.2228953439130041E-009
   1.0889999999999975        1.1740489661970215E-009
   1.0919999999999974        1.1253187647321856E-009
   1.0949999999999973        1.0767792782169522E-009
   1.0979999999999972        1.0285047536281341E-009
   1.1009999999999971        9.8056903265140180E-010
   1.1039999999999970        9.3304543873146099E-010
   1.1069999999999969        8.8600666491494459E-010
   1.1099999999999968        8.3952466265777328E-010
   1.1129999999999967        7.9367053176680753E-010
   1.1159999999999966        7.4851441164397115E-010
   1.1189999999999964        7.0412537399967580E-010
   1.1219999999999963        6.6057131719958718E-010
   1.1249999999999962        6.1791886240565159E-010
   1.1279999999999961        5.7623325167109394E-010
