 # time (s), Total Kinetic Energy
   2.9947165801047513E-003   2.4973649922241669E-009
   5.9894331602095025E-003   2.4929262641514808E-009
   8.9841497403142546E-003   2.4866909604748752E-009
   1.1978866320419005E-002   2.4786686781399355E-009
   1.4973582900523755E-002   2.4688715946143797E-009
   1.7968299480628509E-002   2.4573144469994911E-009
   2.0963016060733260E-002   2.4440145086910216E-009
   2.3957732640838010E-002   2.4289915635203606E-009
   2.6952449220942760E-002   2.4122678759224852E-009
   2.9947165801047511E-002   2.3938681569727346E-009
   3.2941882381152261E-002   2.3738195268346384E-009
   3.5936598961257019E-002   2.3521514740732678E-009
   3.8931315541361769E-002   2.3288958117458179E-009
   4.1926032121466519E-002   2.3040866299842370E-009
   4.4920748701571270E-002   2.2777602450477229E-009
   4.7915465281676020E-002   2.2499551451460951E-009
   5.0910181861780771E-002   2.2207119333436332E-009
   5.3904898441885521E-002   2.1900732676122670E-009
   5.6899615021990271E-002   2.1580837979316932E-009
   5.9894331602095022E-002   2.1247901004121693E-009
   6.2889048182199772E-002   2.0902406086141379E-009
   6.5883764762304522E-002   2.0544855423076854E-009
   6.8878481342409273E-002   2.0175768337955188E-009
   7.1873197922514037E-002   1.9795680517807604E-009
   7.4867914502618788E-002   1.9405143227710862E-009
   7.7862631082723538E-002   1.9004722501597030E-009
   8.0857347662828288E-002   1.8594998312422126E-009
   8.3852064242933039E-002   1.8176563723935479E-009
   8.6846780823037789E-002   1.7750024024922039E-009
   8.9841497403142540E-002   1.7315995846054766E-009
   9.2836213983247290E-002   1.6875106260085696E-009
   9.5830930563352040E-002   1.6427991867190438E-009
   9.8825647143456791E-002   1.5975297867648632E-009
  0.10182036372356154        1.5517677123282608E-009
  0.10481508030366629        1.5055789208225805E-009
  0.10780979688377104        1.4590299449662795E-009
  0.11080451346387579        1.4121877960074910E-009
  0.11379923004398054        1.3651198663298765E-009
  0.11679394662408529        1.3178938316468725E-009
  0.11978866320419004        1.2705775529041087E-009
  0.12278337978429481        1.2232389779588158E-009
  0.12577809636439954        1.1759460431380468E-009
  0.12877281294450429        1.1287665748521793E-009
  0.13176752952460904        1.0817681914648503E-009
  0.13476224610471380        1.0350182055714926E-009
  0.13775696268481855        9.8858352677647728E-010
  0.14075167926492330        9.4253056505555178E-010
  0.14374639584502807        8.9692513484965699E-010
  0.14674111242513282        8.5183236008633244E-010
  0.14973582900523758        8.0731658031080807E-010
  0.15273054558534233        7.6344125804579535E-010
  0.15572526216544708        7.2026888745724158E-010
  0.15871997874555183        6.7786090442912313E-010
  0.16171469532565658        6.3627759820941594E-010
  0.16470941190576133        5.9557802481973554E-010
  0.16770412848586608        5.5581992239062890E-010
  0.17069884506597083        5.1705962852248997E-010
  0.17369356164607558        4.7935199973075521E-010
  0.17668827822618033        4.4275033303415444E-010
  0.17968299480628508        4.0730628961781177E-010
  0.18267771138638983        3.7306982081593660E-010
  0.18567242796649458        3.4008909644860425E-010
  0.18866714454659933        3.0841043541875243E-010
  0.19166186112670408        2.7807823911901610E-010
  0.19465657770680883        2.4913492815708899E-010
  0.19765129428691358        2.2162088282885954E-010
  0.20064601086701833        1.9557438747466240E-010
  0.20364072744712308        1.7103157838678608E-010
  0.20663544402722783        1.4802639453540902E-010
  0.20963016060733258        1.2659053030695815E-010
  0.21262487718743733        1.0675338983200554E-010
  0.21561959376754208        8.8542043224042717E-011
  0.21861431034764683        7.1981185664695663E-011
  0.22160902692775158        5.7093100548849380E-011
  0.22460374350785633        4.3897627728680758E-011
  0.22759846008796109        3.2412137037303003E-011
  0.23059317666806584        2.2651506589027647E-011
  0.23358789324817059        1.4628103926153412E-011
  0.23658260982827534        8.3517698505704068E-012
  0.23957732640838009        3.8298054525292586E-012
  0.24257204298848487        1.0669649555412005E-012
  0.24556675956858962        6.5422451421797092E-014
  0.24856147614869437        8.2438987314535647E-013
  0.25155619272879909        3.3404160899797051E-012
  0.25455090930890384        7.6079165082155701E-012
  0.25754562588900859        1.3618803814375785E-011
  0.26054034246911334        2.1362470543684868E-011
  0.26353505904921809        3.0825809378565627E-011
  0.26652977562932284        4.1993235336474470E-011
  0.26952449220942759        5.4846710828522769E-011
  0.27251920878953234        6.9365774299725488E-011
  0.27551392536963709        8.5527571742354935E-011
  0.27850864194974184        1.0330689155973010E-010
  0.28150335852984659        1.2267620294382875E-010
  0.28449807510995134        1.4360569785388676E-010
  0.28749279169005615        1.6606333580622894E-010
  0.29048750827016090        1.9001489190325407E-010
  0.29348222485026565        2.1542400826218439E-010
  0.29647694143037040        2.4225224845028354E-010
  0.29947165801047515        2.7045915471080016E-010
  0.30246637459057990        3.0000230790073301E-010
  0.30546109117068465        3.3083739019263550E-010
  0.30845580775078940        3.6291825052526205E-010
  0.31145052433089415        3.9619697293580718E-010
  0.31444524091099890        4.3062394739248856E-010
  0.31743995749110365        4.6614794280394222E-010
  0.32043467407120840        5.0271618223043921E-010
  0.32342939065131315        5.4027442030972608E-010
  0.32642410723141790        5.7876702287381034E-010
  0.32941882381152265        6.1813704857460556E-010
  0.33241354039162740        6.5832633224825729E-010
  0.33540825697173215        6.9927556980708835E-010
  0.33840297355183691        7.4092440457995121E-010
  0.34139769013194166        7.8321151508361054E-010
  0.34439240671204641        8.2607470414639323E-010
  0.34738712329215116        8.6945098919659990E-010
  0.35038183987225591        9.1327669349754422E-010
  0.35337655645236066        9.5748753818158546E-010
  0.35637127303246541        1.0020187350201217E-009
  0.35936598961257016        1.0468050798731449E-009
  0.36236070619267491        1.0917810466890277E-009
  0.36535542277277966        1.1368808818632267E-009
  0.36835013935288441        1.1820386987835242E-009
  0.37134485593298916        1.2271885724664067E-009
  0.37433957251309391        1.2722646342382665E-009
  0.37733428909319866        1.3172011663840527E-009
  0.38032900567330341        1.3619326966117697E-009
  0.38332372225340816        1.4063940921438000E-009
  0.38631843883351291        1.4505206532763500E-009
  0.38931315541361766        1.4942482063019439E-009
  0.39230787199372241        1.5375131957008179E-009
  0.39530258857382716        1.5802527754645397E-009
  0.39829730515393191        1.6224048993702769E-009
  0.40129202173403666        1.6639084100294028E-009
  0.40428673831414141        1.7047031265830358E-009
  0.40728145489424616        1.7447299309567398E-009
  0.41027617147435091        1.7839308525837625E-009
  0.41327088805445567        1.8222491514742661E-009
  0.41626560463456042        1.8596293994976041E-009
  0.41926032121466517        1.8960175597667786E-009
  0.42225503779476992        1.9313610640348386E-009
  0.42524975437487467        1.9656088879913904E-009
  0.42824447095497942        1.9987116242904715E-009
  0.43123918753508417        2.0306215531099909E-009
  0.43423390411518892        2.0612927100789187E-009
  0.43722862069529367        2.0906809514947182E-009
  0.44022333727539842        2.1187440165760105E-009
  0.44321805385550317        2.1454415869108794E-009
  0.44621277043560792        2.1707353441359368E-009
  0.44920748701571267        2.1945890243687351E-009
  0.45220220359581742        2.2169684688940232E-009
  0.45519692017592217        2.2378416719863249E-009
  0.45819163675602692        2.2571788255560046E-009
  0.46118635333613167        2.2749523607671456E-009
  0.46418106991623642        2.2911369866310622E-009
  0.46717578649634117        2.3057097255199564E-009
  0.47017050307644592        2.3186499454413932E-009
  0.47316521965655067        2.3299393888679172E-009
  0.47615993623665542        2.3395621979494342E-009
  0.47915465281676017        2.3475049360595321E-009
  0.48214936939686498        2.3537566057717761E-009
  0.48514408597696973        2.3583086634150078E-009
  0.48813880255707448        2.3611550302664305E-009
  0.49113351913717923        2.3622921002639330E-009
  0.49412823571728398        2.3617187440064371E-009
  0.49712295229738873        2.3594363088931022E-009
  0.50011766887749343        2.3554486154893054E-009
  0.50311238545759818        2.3497619504115540E-009
  0.50610710203770293        2.3423850560025390E-009
  0.50910181861780768        2.3333291168198984E-009
  0.51209653519791243        2.3226077426771622E-009
  0.51509125177801718        2.3102369478998454E-009
  0.51808596835812193        2.2962351266800117E-009
  0.52108068493822668        2.2806230247504537E-009
  0.52407540151833143        2.2634237077799537E-009
  0.52707011809843618        2.2446625267642980E-009
  0.53006483467854093        2.2243670803685247E-009
  0.53305955125864568        2.2025671739466902E-009
  0.53605426783875043        2.1792947750362848E-009
  0.53904898441885518        2.1545839654362013E-009
  0.54204370099895993        2.1284708902606560E-009
  0.54503841757906468        2.1009937043806461E-009
  0.54803313415916943        2.0721925163912336E-009
  0.55102785073927418        2.0421093299190585E-009
  0.55402256731937893        2.0107879819955657E-009
  0.55701728389948368        1.9782740784396776E-009
  0.56001200047958843        1.9446149265307692E-009
  0.56300671705969318        1.9098594654061894E-009
  0.56600143363979794        1.8740581944526215E-009
  0.56899615021990269        1.8372630996262687E-009
  0.57199086680000744        1.7995275774422668E-009
  0.57498558338011230        1.7609063565075400E-009
  0.57798029996021705        1.7214554168239855E-009
  0.58097501654032180        1.6812319073449624E-009
  0.58396973312042655        1.6402940621929259E-009
  0.58696444970053130        1.5987011156082317E-009
  0.58995916628063605        1.5565132154131932E-009
  0.59295388286074080        1.5137913348142771E-009
  0.59594859944084555        1.4705971826983330E-009
  0.59894331602095030        1.4269931128968070E-009
  0.60193803260105505        1.3830420328897434E-009
  0.60493274918115980        1.3388073120977919E-009
  0.60792746576126455        1.2943526895743750E-009
  0.61092218234136930        1.2497421808853571E-009
  0.61391689892147405        1.2050399842783412E-009
  0.61691161550157880        1.1603103865985254E-009
  0.61990633208168355        1.1156176694615026E-009
  0.62290104866178830        1.0710260158963312E-009
  0.62589576524189305        1.0265994173187140E-009
  0.62889048182199780        9.8240158062622147E-010
  0.63188519840210255        9.3849583548683588E-010
  0.63487991498220731        8.9494504223349770E-010
  0.63787463156231206        8.5181150083491076E-010
  0.64086934814241681        8.0915686113169764E-010
  0.64386406472252156        7.6704203418550786E-010
  0.64685878130262631        7.2552710452700386E-010
  0.64985349788273106        6.8467124337198989E-010
  0.65284821446283581        6.4453262320772539E-010
  0.65584293104294056        6.0516833410215378E-010
  0.65883764762304531        5.6663430211189650E-010
  0.66183236420315006        5.2898520946804885E-010
  0.66482708078325481        4.9227441603518957E-010
  0.66782179736335956        4.5655388260147890E-010
  0.67081651394346431        4.2187409625599803E-010
  0.67381123052356906        3.8828399817937714E-010
  0.67680594710367381        3.5583091395460159E-010
  0.67980066368377856        3.2456048635097154E-010
  0.68279538026388331        2.9451661031489249E-010
  0.68579009684398806        2.6574137033202457E-010
  0.68878481342409281        2.3827498061664857E-010
  0.69177953000419756        2.1215572825131762E-010
  0.69477424658430231        1.8741991955683273E-010
  0.69776896316440706        1.6410182982176894E-010
  0.70076367974451181        1.4223365492233656E-010
  0.70375839632461656        1.2184546544203543E-010
  0.70675311290472131        1.0296516436366987E-010
  0.70974782948482606        8.5618447959511092E-011
  0.71274254606493082        6.9828770464577338E-011
  0.71573726264503557        5.5617314406788314E-011
  0.71873197922514032        4.3002962711411009E-011
  0.72172669580524507        3.2002271625589025E-011
  0.72472141238534982        2.2629447480712676E-011
  0.72771612896545457        1.4896330220718735E-011
  0.73071084554555932        8.8123810200892664E-012
  0.73370556212566407        4.3846756446537166E-012
  0.73670027870576882        1.6178922156310825E-012
  0.73969499528587357        5.1403372488909379E-013
  0.74268971186597832        1.0719913037750783E-012
  0.74568442844608307        3.2880966602291972E-012
  0.74867914502618782        7.1569162152200477E-012
  0.75167386160629257        1.2671041091247959E-011
  0.75466857818639732        1.9820708418312151E-011
  0.75766329476650207        2.8593797711618117E-011
  0.76065801134660682        3.8975853587859142E-011
  0.76365272792671157        5.0950109604448003E-011
  0.76664744450681632        6.4497519890715793E-011
  0.76964216108692107        7.9596783935593113E-011
  0.77263687766702582        9.6224383593050005E-011
  0.77563159424713057        1.1435461906647913E-010
  0.77862631082723532        1.3395964384201646E-010
  0.78162102740734007        1.5500950631736640E-010
  0.78461574398744482        1.7747219796092567E-010
  0.78761046056754958        2.0131370041866185E-010
  0.79060517714765433        2.2649803522028854E-010
  0.79359989372775908        2.5298731653265897E-010
  0.79659461030786383        2.8074180655748693E-010
  0.79958932688796858        3.0971997336859473E-010
  0.80258404346807333        3.3987855309085975E-010
  0.80557876004817808        3.7117261404593049E-010
  0.80857347662828283        4.0355562207681785E-010
  0.81156819320838758        4.3697950813554572E-010
  0.81456290978849233        4.7139473814761213E-010
  0.81755762636859708        5.0675038527357157E-010
  0.82055234294870183        5.4299420422829707E-010
  0.82354705952880658        5.8007270714216752E-010
  0.82654177610891133        6.1793124077280155E-010
  0.82953649268901608        6.5651406548810837E-010
  0.83253120926912083        6.9576443587279496E-010
  0.83552592584922558        7.3562468284508839E-010
  0.83852064242933033        7.7603629707400451E-010
  0.84151535900943508        8.1694001325785458E-010
  0.84451007558953983        8.5827589516009261E-010
  0.84750479216964458        8.9998342153121943E-010
  0.85049950874974933        9.4200157298634309E-010
  0.85349422532985408        9.8426891964890309E-010
  0.85648894190995883        1.0267237092379947E-009
  0.85948365849006358        1.0693039554215965E-009
  0.86247837507016833        1.1119475264911090E-009
  0.86547309165027309        1.1545922344376851E-009
  0.86846780823037784        1.1971759242836280E-009
  0.87146252481048259        1.2396365633020128E-009
  0.87445724139058734        1.2819123298100374E-009
  0.87745195797069209        1.3239417014947352E-009
  0.88044667455079684        1.3656635433930741E-009
  0.88344139113090159        1.4070171950956008E-009
  0.88643610771100634        1.4479425578394976E-009
  0.88943082429111109        1.4883801815707289E-009
  0.89242554087121584        1.5282713501358507E-009
  0.89542025745132059        1.5675581650935979E-009
  0.89841497403142534        1.6061836291855596E-009
  0.90140969061153009        1.6440917291659655E-009
  0.90440440719163484        1.6812275173698855E-009
  0.90739912377173959        1.7175371910952739E-009
  0.91039384035184434        1.7529681692451984E-009
  0.91338855693194909        1.7874691662927184E-009
  0.91638327351205384        1.8209902640944742E-009
  0.91937799009215859        1.8534829821742733E-009
  0.92237270667226334        1.8849003469027062E-009
  0.92536742325236809        1.9151969596373949E-009
  0.92836213983247284        1.9443290634303709E-009
  0.93135685641257759        1.9722546074737748E-009
  0.93435157299268234        1.9989333083000511E-009
  0.93734628957278709        2.0243267071223906E-009
  0.94034100615289185        2.0483982234913453E-009
  0.94333572273299660        2.0711132061389607E-009
  0.94633043931310135        2.0924389819318521E-009
  0.94932515589320610        2.1123449031987257E-009
  0.95231987247331085        2.1308023928906044E-009
  0.95531458905341560        2.1477849867653039E-009
  0.95830930563352035        2.1632683722185527E-009
  0.96130402221362521        2.1772304239843497E-009
  0.96429873879372996        2.1896512370029273E-009
  0.96729345537383471        2.2005131561953028E-009
  0.97028817195393946        2.2098008023009971E-009
  0.97328288853404421        2.2175010929972951E-009
  0.97627760511414896        2.2236032596262911E-009
  0.97927232169425371        2.2280988607047944E-009
  0.98226703827435846        2.2309817932043339E-009
  0.98526175485446321        2.2322483018124453E-009
  0.98825647143456796        2.2318969851518189E-009
  0.99125118801467271        2.2299287974338591E-009
  0.99424590459477746        2.2263470449061421E-009
  0.99724062117488221        2.2211573778652190E-009
   1.0002353377549869        2.2143677797631564E-009
   1.0032300543350916        2.2059885543823649E-009
   1.0062247709151964        2.1960323106915657E-009
   1.0092194874953011        2.1845139440403564E-009
   1.0122142040754059        2.1714506126578165E-009
   1.0152089206555106        2.1568617097226942E-009
   1.0182036372356154        2.1407688324054088E-009
   1.0211983538157201        2.1231957492011914E-009
   1.0241930703958249        2.1041683656132777E-009
   1.0271877869759296        2.0837146869176327E-009
   1.0301825035560344        2.0618647765622514E-009
   1.0331772201361391        2.0386507099487481E-009
   1.0361719367162439        2.0141065248802796E-009
   1.0391666532963486        1.9882681704249712E-009
   1.0421613698764534        1.9611734548534111E-009
   1.0451560864565581        1.9328619916047505E-009
   1.0481508030366629        1.9033751414905575E-009
   1.0511455196167676        1.8727559503164119E-009
   1.0541402361968724        1.8410490829568781E-009
   1.0571349527769771        1.8083007559476750E-009
   1.0601296693570819        1.7745586698487465E-009
   1.0631243859371866        1.7398719406922332E-009
   1.0661191025172914        1.7042910285923660E-009
   1.0691138190973961        1.6678676622800486E-009
   1.0721085356775009        1.6306547603391083E-009
   1.0751032522576056        1.5927063513419273E-009
   1.0780979688377104        1.5540774945095613E-009
   1.0810926854178151        1.5148242003777726E-009
   1.0840874019979199        1.4750033496032751E-009
   1.0870821185780246        1.4346726084170197E-009
   1.0900768351581294        1.3938903411748443E-009
   1.0930715517382341        1.3527155224552004E-009
   1.0960662683183389        1.3112076505071903E-009
   1.0990609848984436        1.2694266617844987E-009
   1.1020557014785484        1.2274328445810162E-009
   1.1050504180586531        1.1852867501960577E-009
   1.1080451346387579        1.1430491021837936E-009
   1.1110398512188626        1.1007807059579609E-009
   1.1140345677989674        1.0585423605818849E-009
   1.1170292843790721        1.0163947723958742E-009
   1.1200240009591769        9.7439846840192911E-010
   1.1230187175392816        9.3261370779142397E-010
   1.1260134341193864        8.9110039221760229E-010
